'abs_01_QDs_ZnS_Mn_after_2020-10-14_14-46.spc - RawData'
'Wavelength nm.'	'Abs.'
200.0	0.7660
201.0	0.7569
202.0	0.7663
203.0	0.8098
204.0	0.8405
205.0	0.9097
206.0	1.0357
207.0	1.1806
208.0	1.2935
209.0	1.4777
210.0	1.6623
211.0	1.8215
212.0	1.9715
213.0	2.1164
214.0	2.1829
215.0	2.2686
216.0	2.3347
217.0	2.3865
218.0	2.4359
219.0	2.4722
220.0	2.4914
221.0	2.4942
222.0	2.5049
223.0	2.5031
224.0	2.5044
225.0	2.4974
226.0	2.5071
227.0	2.4916
228.0	2.5014
229.0	2.4884
230.0	2.5042
231.0	2.4988
232.0	2.5203
233.0	2.5208
234.0	2.5396
235.0	2.5576
236.0	2.5758
237.0	2.5809
238.0	2.5898
239.0	2.6090
240.0	2.6184
241.0	2.6331
242.0	2.6406
243.0	2.6469
244.0	2.6601
245.0	2.6679
246.0	2.6687
247.0	2.6761
248.0	2.6929
249.0	2.6956
250.0	2.6986
251.0	2.7139
252.0	2.7256
253.0	2.7280
254.0	2.7277
255.0	2.7310
256.0	2.7325
257.0	2.7346
258.0	2.7354
259.0	2.7370
260.0	2.7444
261.0	2.7426
262.0	2.7556
263.0	2.7590
264.0	2.7633
265.0	2.7573
266.0	2.7590
267.0	2.7478
268.0	2.7449
269.0	2.7504
270.0	2.7509
271.0	2.6966
272.0	2.5609
273.0	2.3468
274.0	2.0812
275.0	1.8218
276.0	1.5892
277.0	1.3848
278.0	1.2050
279.0	1.0530
280.0	0.9263
281.0	0.8120
282.0	0.7203
283.0	0.6467
284.0	0.5887
285.0	0.5430
286.0	0.5094
287.0	0.4835
288.0	0.4616
289.0	0.4431
290.0	0.4241
291.0	0.4083
292.0	0.3925
293.0	0.3779
294.0	0.3623
295.0	0.3485
296.0	0.3340
297.0	0.3189
298.0	0.3049
299.0	0.2930
300.0	0.2826
301.0	0.2732
302.0	0.2654
303.0	0.2576
304.0	0.2511
305.0	0.2432
306.0	0.2360
307.0	0.2283
308.0	0.2216
309.0	0.2134
310.0	0.2055
311.0	0.1980
312.0	0.1903
313.0	0.1820
314.0	0.1738
315.0	0.1657
316.0	0.1575
317.0	0.1495
318.0	0.1428
319.0	0.1356
320.0	0.1297
321.0	0.1244
322.0	0.1194
323.0	0.1142
324.0	0.1108
325.0	0.1079
326.0	0.1044
327.0	0.1020
328.0	0.0997
329.0	0.0968
330.0	0.0945
331.0	0.0929
332.0	0.0908
333.0	0.0890
334.0	0.0888
335.0	0.0868
336.0	0.0854
337.0	0.0842
338.0	0.0825
339.0	0.0800
340.0	0.0789
341.0	0.0777
342.0	0.0765
343.0	0.0760
344.0	0.0757
345.0	0.0750
346.0	0.0738
347.0	0.0731
348.0	0.0721
349.0	0.0709
350.0	0.0698
351.0	0.0685
352.0	0.0676
353.0	0.0662
354.0	0.0653
355.0	0.0642
356.0	0.0637
357.0	0.0627
358.0	0.0621
359.0	0.0610
360.0	0.0604
361.0	0.0592
362.0	0.0586
363.0	0.0580
364.0	0.0576
365.0	0.0571
366.0	0.0568
367.0	0.0560
368.0	0.0554
369.0	0.0543
370.0	0.0538
371.0	0.0533
372.0	0.0526
373.0	0.0519
374.0	0.0513
375.0	0.0497
376.0	0.0487
377.0	0.0483
378.0	0.0477
379.0	0.0474
380.0	0.0475
381.0	0.0473
382.0	0.0471
383.0	0.0465
384.0	0.0459
385.0	0.0456
386.0	0.0449
387.0	0.0443
388.0	0.0443
389.0	0.0441
390.0	0.0440
391.0	0.0440
392.0	0.0439
393.0	0.0435
394.0	0.0434
395.0	0.0429
396.0	0.0428
397.0	0.0424
398.0	0.0423
399.0	0.0419
400.0	0.0423
401.0	0.0416
402.0	0.0414
403.0	0.0413
404.0	0.0411
405.0	0.0407
406.0	0.0410
407.0	0.0409
408.0	0.0407
409.0	0.0406
410.0	0.0403
411.0	0.0401
412.0	0.0398
413.0	0.0396
414.0	0.0395
415.0	0.0391
416.0	0.0387
417.0	0.0386
418.0	0.0384
419.0	0.0381
420.0	0.0381
421.0	0.0380
422.0	0.0378
423.0	0.0375
424.0	0.0373
425.0	0.0372
426.0	0.0371
427.0	0.0368
428.0	0.0365
429.0	0.0365
430.0	0.0361
431.0	0.0360
432.0	0.0362
433.0	0.0362
434.0	0.0361
435.0	0.0362
436.0	0.0361
437.0	0.0358
438.0	0.0357
439.0	0.0354
440.0	0.0354
441.0	0.0355
442.0	0.0353
443.0	0.0353
444.0	0.0355
445.0	0.0353
446.0	0.0350
447.0	0.0350
448.0	0.0348
449.0	0.0347
450.0	0.0346
451.0	0.0345
452.0	0.0344
453.0	0.0343
454.0	0.0341
455.0	0.0341
456.0	0.0339
457.0	0.0338
458.0	0.0337
459.0	0.0336
460.0	0.0335
461.0	0.0336
462.0	0.0334
463.0	0.0334
464.0	0.0334
465.0	0.0332
466.0	0.0330
467.0	0.0330
468.0	0.0329
469.0	0.0329
470.0	0.0328
471.0	0.0328
472.0	0.0329
473.0	0.0329
474.0	0.0329
475.0	0.0327
476.0	0.0325
477.0	0.0325
478.0	0.0325
479.0	0.0325
480.0	0.0326
481.0	0.0328
482.0	0.0328
483.0	0.0327
484.0	0.0326
485.0	0.0326
486.0	0.0325
487.0	0.0324
488.0	0.0322
489.0	0.0321
490.0	0.0320
491.0	0.0321
492.0	0.0320
493.0	0.0320
494.0	0.0320
495.0	0.0320
496.0	0.0319
497.0	0.0321
498.0	0.0322
499.0	0.0321
500.0	0.0320
501.0	0.0318
502.0	0.0317
503.0	0.0317
504.0	0.0317
505.0	0.0319
506.0	0.0322
507.0	0.0321
508.0	0.0320
509.0	0.0318
510.0	0.0317
511.0	0.0316
512.0	0.0317
513.0	0.0316
514.0	0.0317
515.0	0.0316
516.0	0.0316
517.0	0.0315
518.0	0.0315
519.0	0.0314
520.0	0.0312
521.0	0.0314
522.0	0.0314
523.0	0.0316
524.0	0.0318
525.0	0.0318
526.0	0.0316
527.0	0.0317
528.0	0.0316
529.0	0.0314
530.0	0.0314
531.0	0.0314
532.0	0.0313
533.0	0.0312
534.0	0.0312
535.0	0.0312
536.0	0.0311
537.0	0.0313
538.0	0.0311
539.0	0.0313
540.0	0.0311
541.0	0.0311
542.0	0.0309
543.0	0.0309
544.0	0.0308
545.0	0.0309
546.0	0.0309
547.0	0.0308
548.0	0.0310
549.0	0.0311
550.0	0.0311
551.0	0.0310
552.0	0.0312
553.0	0.0309
554.0	0.0307
555.0	0.0308
556.0	0.0308
557.0	0.0308
558.0	0.0308
559.0	0.0309
560.0	0.0308
561.0	0.0309
562.0	0.0309
563.0	0.0309
564.0	0.0310
565.0	0.0308
566.0	0.0307
567.0	0.0308
568.0	0.0308
569.0	0.0306
570.0	0.0306
571.0	0.0307
572.0	0.0308
573.0	0.0307
574.0	0.0307
575.0	0.0307
576.0	0.0306
577.0	0.0305
578.0	0.0305
579.0	0.0306
580.0	0.0306
581.0	0.0306
582.0	0.0307
583.0	0.0306
584.0	0.0306
585.0	0.0306
586.0	0.0306
587.0	0.0304
588.0	0.0305
589.0	0.0305
590.0	0.0305
591.0	0.0304
592.0	0.0305
593.0	0.0304
594.0	0.0305
595.0	0.0304
596.0	0.0305
597.0	0.0304
598.0	0.0306
599.0	0.0305
600.0	0.0304
601.0	0.0303
602.0	0.0302
603.0	0.0302
604.0	0.0304
605.0	0.0303
606.0	0.0304
607.0	0.0305
608.0	0.0304
609.0	0.0304
610.0	0.0306
611.0	0.0307
612.0	0.0306
613.0	0.0307
614.0	0.0307
615.0	0.0306
616.0	0.0305
617.0	0.0307
618.0	0.0306
619.0	0.0306
620.0	0.0305
621.0	0.0304
622.0	0.0304
623.0	0.0303
624.0	0.0304
625.0	0.0305
626.0	0.0304
627.0	0.0303
628.0	0.0304
629.0	0.0301
630.0	0.0300
631.0	0.0301
632.0	0.0302
633.0	0.0301
634.0	0.0302
635.0	0.0302
636.0	0.0303
637.0	0.0303
638.0	0.0302
639.0	0.0300
640.0	0.0300
641.0	0.0300
642.0	0.0301
643.0	0.0301
644.0	0.0301
645.0	0.0302
646.0	0.0301
647.0	0.0300
648.0	0.0299
649.0	0.0301
650.0	0.0300
651.0	0.0299
652.0	0.0299
653.0	0.0302
654.0	0.0302
655.0	0.0303
656.0	0.0302
657.0	0.0300
658.0	0.0300
659.0	0.0299
660.0	0.0298
661.0	0.0299
662.0	0.0300
663.0	0.0299
664.0	0.0299
665.0	0.0301
666.0	0.0300
667.0	0.0300
668.0	0.0302
669.0	0.0304
670.0	0.0303
671.0	0.0305
672.0	0.0304
673.0	0.0301
674.0	0.0300
675.0	0.0300
676.0	0.0299
677.0	0.0300
678.0	0.0299
679.0	0.0299
680.0	0.0295
681.0	0.0293
682.0	0.0290
683.0	0.0292
684.0	0.0291
685.0	0.0293
686.0	0.0294
687.0	0.0297
688.0	0.0296
689.0	0.0295
690.0	0.0296
691.0	0.0296
692.0	0.0293
693.0	0.0293
694.0	0.0294
695.0	0.0294
696.0	0.0296
697.0	0.0301
698.0	0.0298
699.0	0.0297
700.0	0.0298
701.0	0.0295
702.0	0.0297
703.0	0.0298
704.0	0.0300
705.0	0.0299
706.0	0.0302
707.0	0.0300
708.0	0.0301
709.0	0.0301
710.0	0.0301
711.0	0.0303
712.0	0.0299
713.0	0.0300
714.0	0.0300
715.0	0.0303
716.0	0.0301
717.0	0.0302
718.0	0.0299
719.0	0.0299
720.0	0.0298
721.0	0.0296
722.0	0.0294
723.0	0.0296
724.0	0.0298
725.0	0.0301
726.0	0.0302
727.0	0.0304
728.0	0.0307
729.0	0.0304
730.0	0.0298
731.0	0.0301
732.0	0.0299
733.0	0.0299
734.0	0.0299
735.0	0.0298
736.0	0.0294
737.0	0.0292
738.0	0.0288
739.0	0.0289
740.0	0.0294
741.0	0.0296
742.0	0.0298
743.0	0.0299
744.0	0.0300
745.0	0.0299
746.0	0.0298
747.0	0.0300
748.0	0.0300
749.0	0.0294
750.0	0.0290
751.0	0.0291
752.0	0.0292
753.0	0.0292
754.0	0.0294
755.0	0.0294
756.0	0.0293
757.0	0.0292
758.0	0.0290
759.0	0.0296
760.0	0.0299
761.0	0.0301
762.0	0.0300
763.0	0.0303
764.0	0.0298
765.0	0.0301
766.0	0.0296
767.0	0.0297
768.0	0.0299
769.0	0.0301
770.0	0.0297
771.0	0.0300
772.0	0.0300
773.0	0.0299
774.0	0.0297
775.0	0.0299
776.0	0.0301
777.0	0.0299
778.0	0.0295
779.0	0.0296
780.0	0.0292
781.0	0.0287
782.0	0.0292
783.0	0.0290
784.0	0.0288
785.0	0.0292
786.0	0.0293
787.0	0.0289
788.0	0.0299
789.0	0.0304
790.0	0.0297
791.0	0.0301
792.0	0.0303
793.0	0.0299
794.0	0.0296
795.0	0.0299
796.0	0.0297
797.0	0.0296
798.0	0.0285
799.0	0.0275
800.0	0.0267
