'toluene_QS.spc - RawData'
'Wavelength nm.'	'Abs.'
200.0	1.9689
201.0	1.9843
202.0	2.0041
203.0	2.0378
204.0	2.0604
205.0	2.0748
206.0	2.1047
207.0	2.1234
208.0	2.1381
209.0	2.1569
210.0	2.1784
211.0	2.1824
212.0	2.2101
213.0	2.2179
214.0	2.2248
215.0	2.2417
216.0	2.2493
217.0	2.2508
218.0	2.2461
219.0	2.2467
220.0	2.2450
221.0	2.2576
222.0	2.2538
223.0	2.2712
224.0	2.2752
225.0	2.2783
226.0	2.2770
227.0	2.2883
228.0	2.2876
229.0	2.2911
230.0	2.2961
231.0	2.2983
232.0	2.2954
233.0	2.3019
234.0	2.3110
235.0	2.3142
236.0	2.3266
237.0	2.3476
238.0	2.3583
239.0	2.3756
240.0	2.3994
241.0	2.4207
242.0	2.4361
243.0	2.4537
244.0	2.4669
245.0	2.4735
246.0	2.4787
247.0	2.4854
248.0	2.4962
249.0	2.5027
250.0	2.5145
251.0	2.5276
252.0	2.5316
253.0	2.5401
254.0	2.5467
255.0	2.5433
256.0	2.5367
257.0	2.5408
258.0	2.5443
259.0	2.5447
260.0	2.5559
261.0	2.5702
262.0	2.5784
263.0	2.5802
264.0	2.5799
265.0	2.5693
266.0	2.5611
267.0	2.5517
268.0	2.5542
269.0	2.5493
270.0	2.5422
271.0	2.4747
272.0	2.2977
273.0	2.0260
274.0	1.7304
275.0	1.4602
276.0	1.2134
277.0	1.0039
278.0	0.8235
279.0	0.6718
280.0	0.5444
281.0	0.4266
282.0	0.3354
283.0	0.2637
284.0	0.2075
285.0	0.1651
286.0	0.1392
287.0	0.1194
288.0	0.1056
289.0	0.0956
290.0	0.0885
291.0	0.0831
292.0	0.0790
293.0	0.0746
294.0	0.0726
295.0	0.0697
296.0	0.0673
297.0	0.0640
298.0	0.0631
299.0	0.0599
300.0	0.0590
301.0	0.0579
302.0	0.0570
303.0	0.0552
304.0	0.0545
305.0	0.0514
306.0	0.0500
307.0	0.0493
308.0	0.0479
309.0	0.0477
310.0	0.0472
311.0	0.0467
312.0	0.0462
313.0	0.0459
314.0	0.0453
315.0	0.0459
316.0	0.0448
317.0	0.0446
318.0	0.0441
319.0	0.0439
320.0	0.0428
321.0	0.0431
322.0	0.0424
323.0	0.0423
324.0	0.0419
325.0	0.0416
326.0	0.0418
327.0	0.0414
328.0	0.0416
329.0	0.0404
330.0	0.0406
331.0	0.0398
332.0	0.0397
333.0	0.0392
334.0	0.0395
335.0	0.0393
336.0	0.0389
337.0	0.0392
338.0	0.0396
339.0	0.0391
340.0	0.0396
341.0	0.0393
342.0	0.0395
343.0	0.0390
344.0	0.0391
345.0	0.0387
346.0	0.0391
347.0	0.0381
348.0	0.0378
349.0	0.0379
350.0	0.0373
351.0	0.0374
352.0	0.0375
353.0	0.0378
354.0	0.0377
355.0	0.0378
356.0	0.0373
357.0	0.0372
358.0	0.0368
359.0	0.0368
360.0	0.0367
361.0	0.0367
362.0	0.0369
363.0	0.0369
364.0	0.0369
365.0	0.0365
366.0	0.0368
367.0	0.0365
368.0	0.0366
369.0	0.0362
370.0	0.0365
371.0	0.0363
372.0	0.0364
373.0	0.0361
374.0	0.0362
375.0	0.0361
376.0	0.0360
377.0	0.0360
378.0	0.0361
379.0	0.0361
380.0	0.0361
381.0	0.0363
382.0	0.0361
383.0	0.0359
384.0	0.0360
385.0	0.0356
386.0	0.0357
387.0	0.0354
388.0	0.0356
389.0	0.0354
390.0	0.0355
391.0	0.0353
392.0	0.0354
393.0	0.0357
394.0	0.0358
395.0	0.0359
396.0	0.0359
397.0	0.0359
398.0	0.0354
399.0	0.0353
400.0	0.0352
401.0	0.0352
402.0	0.0352
403.0	0.0355
404.0	0.0354
405.0	0.0354
406.0	0.0352
407.0	0.0351
408.0	0.0350
409.0	0.0351
410.0	0.0349
411.0	0.0349
412.0	0.0351
413.0	0.0350
414.0	0.0349
415.0	0.0351
416.0	0.0352
417.0	0.0351
418.0	0.0350
419.0	0.0350
420.0	0.0350
421.0	0.0348
422.0	0.0347
423.0	0.0347
424.0	0.0346
425.0	0.0345
426.0	0.0344
427.0	0.0344
428.0	0.0344
429.0	0.0345
430.0	0.0345
431.0	0.0345
432.0	0.0345
433.0	0.0344
434.0	0.0342
435.0	0.0341
436.0	0.0339
437.0	0.0341
438.0	0.0342
439.0	0.0343
440.0	0.0344
441.0	0.0344
442.0	0.0343
443.0	0.0344
444.0	0.0344
445.0	0.0345
446.0	0.0345
447.0	0.0345
448.0	0.0344
449.0	0.0344
450.0	0.0343
451.0	0.0344
452.0	0.0345
453.0	0.0344
454.0	0.0343
455.0	0.0341
456.0	0.0339
457.0	0.0339
458.0	0.0339
459.0	0.0339
460.0	0.0340
461.0	0.0340
462.0	0.0340
463.0	0.0340
464.0	0.0340
465.0	0.0340
466.0	0.0339
467.0	0.0339
468.0	0.0338
469.0	0.0338
470.0	0.0337
471.0	0.0339
472.0	0.0339
473.0	0.0341
474.0	0.0340
475.0	0.0341
476.0	0.0340
477.0	0.0341
478.0	0.0340
479.0	0.0339
480.0	0.0339
481.0	0.0339
482.0	0.0337
483.0	0.0337
484.0	0.0337
485.0	0.0338
486.0	0.0337
487.0	0.0337
488.0	0.0336
489.0	0.0336
490.0	0.0335
491.0	0.0335
492.0	0.0336
493.0	0.0338
494.0	0.0337
495.0	0.0337
496.0	0.0336
497.0	0.0334
498.0	0.0333
499.0	0.0333
500.0	0.0332
501.0	0.0333
502.0	0.0335
503.0	0.0333
504.0	0.0335
505.0	0.0334
506.0	0.0334
507.0	0.0333
508.0	0.0334
509.0	0.0334
510.0	0.0335
511.0	0.0335
512.0	0.0336
513.0	0.0336
514.0	0.0336
515.0	0.0336
516.0	0.0337
517.0	0.0336
518.0	0.0335
519.0	0.0335
520.0	0.0336
521.0	0.0336
522.0	0.0336
523.0	0.0336
524.0	0.0335
525.0	0.0334
526.0	0.0335
527.0	0.0334
528.0	0.0331
529.0	0.0332
530.0	0.0332
531.0	0.0331
532.0	0.0333
533.0	0.0335
534.0	0.0335
535.0	0.0335
536.0	0.0334
537.0	0.0332
538.0	0.0332
539.0	0.0331
540.0	0.0331
541.0	0.0331
542.0	0.0331
543.0	0.0332
544.0	0.0333
545.0	0.0333
546.0	0.0333
547.0	0.0333
548.0	0.0332
549.0	0.0331
550.0	0.0330
551.0	0.0331
552.0	0.0331
553.0	0.0332
554.0	0.0332
555.0	0.0333
556.0	0.0333
557.0	0.0333
558.0	0.0332
559.0	0.0333
560.0	0.0333
561.0	0.0333
562.0	0.0333
563.0	0.0334
564.0	0.0334
565.0	0.0333
566.0	0.0331
567.0	0.0331
568.0	0.0328
569.0	0.0328
570.0	0.0328
571.0	0.0331
572.0	0.0331
573.0	0.0332
574.0	0.0332
575.0	0.0332
576.0	0.0331
577.0	0.0330
578.0	0.0330
579.0	0.0327
580.0	0.0326
581.0	0.0325
582.0	0.0325
583.0	0.0325
584.0	0.0328
585.0	0.0326
586.0	0.0328
587.0	0.0327
588.0	0.0327
589.0	0.0327
590.0	0.0328
591.0	0.0327
592.0	0.0327
593.0	0.0328
594.0	0.0328
595.0	0.0328
596.0	0.0328
597.0	0.0328
598.0	0.0329
599.0	0.0329
600.0	0.0329
601.0	0.0329
602.0	0.0330
603.0	0.0329
604.0	0.0327
605.0	0.0326
606.0	0.0327
607.0	0.0328
608.0	0.0328
609.0	0.0329
610.0	0.0330
611.0	0.0328
612.0	0.0326
613.0	0.0326
614.0	0.0326
615.0	0.0325
616.0	0.0324
617.0	0.0326
618.0	0.0326
619.0	0.0325
620.0	0.0326
621.0	0.0327
622.0	0.0325
623.0	0.0326
624.0	0.0325
625.0	0.0325
626.0	0.0324
627.0	0.0324
628.0	0.0323
629.0	0.0323
630.0	0.0323
631.0	0.0324
632.0	0.0325
633.0	0.0326
634.0	0.0325
635.0	0.0326
636.0	0.0324
637.0	0.0324
638.0	0.0324
639.0	0.0326
640.0	0.0325
641.0	0.0326
642.0	0.0325
643.0	0.0325
644.0	0.0322
645.0	0.0321
646.0	0.0322
647.0	0.0321
648.0	0.0320
649.0	0.0322
650.0	0.0323
651.0	0.0323
652.0	0.0323
653.0	0.0325
654.0	0.0324
655.0	0.0325
656.0	0.0325
657.0	0.0325
658.0	0.0324
659.0	0.0325
660.0	0.0323
661.0	0.0323
662.0	0.0323
663.0	0.0322
664.0	0.0321
665.0	0.0321
666.0	0.0319
667.0	0.0318
668.0	0.0317
669.0	0.0315
670.0	0.0316
671.0	0.0318
672.0	0.0318
673.0	0.0319
674.0	0.0321
675.0	0.0321
676.0	0.0321
677.0	0.0320
678.0	0.0319
679.0	0.0318
680.0	0.0318
681.0	0.0319
682.0	0.0321
683.0	0.0320
684.0	0.0321
685.0	0.0318
686.0	0.0317
687.0	0.0316
688.0	0.0315
689.0	0.0316
690.0	0.0317
691.0	0.0317
692.0	0.0316
693.0	0.0318
694.0	0.0318
695.0	0.0320
696.0	0.0320
697.0	0.0321
698.0	0.0322
699.0	0.0321
700.0	0.0319
701.0	0.0318
702.0	0.0316
703.0	0.0316
704.0	0.0315
705.0	0.0317
706.0	0.0317
707.0	0.0320
708.0	0.0320
709.0	0.0322
710.0	0.0321
711.0	0.0323
712.0	0.0322
713.0	0.0322
714.0	0.0322
715.0	0.0323
716.0	0.0324
717.0	0.0325
718.0	0.0323
719.0	0.0323
720.0	0.0321
721.0	0.0321
722.0	0.0321
723.0	0.0322
724.0	0.0320
725.0	0.0319
726.0	0.0318
727.0	0.0318
728.0	0.0318
729.0	0.0321
730.0	0.0318
731.0	0.0321
732.0	0.0318
733.0	0.0316
734.0	0.0315
735.0	0.0322
736.0	0.0319
737.0	0.0322
738.0	0.0323
739.0	0.0322
740.0	0.0318
741.0	0.0320
742.0	0.0318
743.0	0.0320
744.0	0.0323
745.0	0.0325
746.0	0.0321
747.0	0.0322
748.0	0.0319
749.0	0.0316
750.0	0.0316
751.0	0.0318
752.0	0.0320
753.0	0.0321
754.0	0.0322
755.0	0.0323
756.0	0.0327
757.0	0.0328
758.0	0.0329
759.0	0.0332
760.0	0.0331
761.0	0.0328
762.0	0.0325
763.0	0.0324
764.0	0.0323
765.0	0.0325
766.0	0.0326
767.0	0.0326
768.0	0.0329
769.0	0.0328
770.0	0.0325
771.0	0.0327
772.0	0.0330
773.0	0.0329
774.0	0.0328
775.0	0.0334
776.0	0.0326
777.0	0.0324
778.0	0.0318
779.0	0.0317
780.0	0.0314
781.0	0.0320
782.0	0.0323
783.0	0.0329
784.0	0.0327
785.0	0.0322
786.0	0.0319
787.0	0.0317
788.0	0.0319
789.0	0.0320
790.0	0.0324
791.0	0.0327
792.0	0.0319
793.0	0.0313
794.0	0.0314
795.0	0.0312
796.0	0.0310
797.0	0.0317
798.0	0.0321
799.0	0.0325
800.0	0.0328
